# time,absorbance
2.060000000000000000e+02,1.443958374382162235e+00
2.160000000000000000e+02,1.484410009373910100e+00
2.270000000000000000e+02,1.475961928134262413e+00
2.370000000000000000e+02,1.443252395659531562e+00
2.480000000000000000e+02,1.456139001537589905e+00
2.580000000000000000e+02,1.466433145016326822e+00
2.680000000000000000e+02,1.443017324215684960e+00
2.790000000000000000e+02,1.442664955448359931e+00
2.890000000000000000e+02,1.434868971083107958e+00
2.990000000000000000e+02,1.432339316432518217e+00
3.100000000000000000e+02,1.436023703169680754e+00
3.200000000000000000e+02,1.419017047811918397e+00
3.310000000000000000e+02,1.422701789777671255e+00
3.410000000000000000e+02,1.436255018478426626e+00
3.520000000000000000e+02,1.425288557255253385e+00
3.620000000000000000e+02,1.422477579921424873e+00
3.730000000000000000e+02,1.427323786357247215e+00
3.830000000000000000e+02,1.420799685438046245e+00
3.940000000000000000e+02,1.413163785011549489e+00
4.040000000000000000e+02,1.420576455167439800e+00
4.140000000000000000e+02,1.413822472420783516e+00
4.250000000000000000e+02,1.411849399699871110e+00
4.350000000000000000e+02,1.420241824755170912e+00
4.460000000000000000e+02,1.414372142766154861e+00
4.560000000000000000e+02,1.409123807209809343e+00
4.670000000000000000e+02,1.411630721708391212e+00
4.770000000000000000e+02,1.414812380494580468e+00
4.880000000000000000e+02,1.411849399699871110e+00
4.980000000000000000e+02,1.402116297273717116e+00
5.080000000000000000e+02,1.403830760815462986e+00
5.190000000000000000e+02,1.399025978756412325e+00
5.290000000000000000e+02,1.397330341729180914e+00
5.400000000000000000e+02,1.411958780000639013e+00
5.500000000000000000e+02,1.394168756677867993e+00
5.610000000000000000e+02,1.391447210888145936e+00
5.710000000000000000e+02,1.389780851119464256e+00
5.810000000000000000e+02,1.386364045343488893e+00
5.920000000000000000e+02,1.393853860362994190e+00
6.020000000000000000e+02,1.389988796769548340e+00
6.130000000000000000e+02,1.393644056261375885e+00
6.230000000000000000e+02,1.387603412125814506e+00
6.340000000000000000e+02,1.384717038934735189e+00
6.440000000000000000e+02,1.388846325872523657e+00
6.550000000000000000e+02,1.386364045343488893e+00
6.650000000000000000e+02,1.375064524216531581e+00
6.760000000000000000e+02,1.374964051230102235e+00
6.860000000000000000e+02,1.368977816109794743e+00
6.970000000000000000e+02,1.365032347394150358e+00
7.070000000000000000e+02,1.368581652358809020e+00
7.180000000000000000e+02,1.371063625521072638e+00
7.280000000000000000e+02,1.358116218680643916e+00
7.390000000000000000e+02,1.367494061738982580e+00
7.490000000000000000e+02,1.357729835664140738e+00
7.600000000000000000e+02,1.362975236494924136e+00
7.700000000000000000e+02,1.353502156880037610e+00
7.810000000000000000e+02,1.348652841345830522e+00
7.910000000000000000e+02,1.341060578707546025e+00
8.020000000000000000e+02,1.351023191525962508e+00
8.120000000000000000e+02,1.341153505739440810e+00
8.230000000000000000e+02,1.343857075697217907e+00
8.330000000000000000e+02,1.349315236369833970e+00
8.440000000000000000e+02,1.331594045480400279e+00
8.540000000000000000e+02,1.334055677138887619e+00
8.650000000000000000e+02,1.334604606407547855e+00
8.750000000000000000e+02,1.319490928630642879e+00
8.860000000000000000e+02,1.319933228782838475e+00
8.960000000000000000e+02,1.317286159544222901e+00
9.070000000000000000e+02,1.322507490786042350e+00
9.180000000000000000e+02,1.310045569618734751e+00
9.280000000000000000e+02,1.306684607355186767e+00
9.390000000000000000e+02,1.305056590226050695e+00
9.490000000000000000e+02,1.297847161716531472e+00
9.600000000000000000e+02,1.299701682896720278e+00
9.700000000000000000e+02,1.290838222565415139e+00
9.810000000000000000e+02,1.282720332343235681e+00
9.910000000000000000e+02,1.291086603745707384e+00
1.002000000000000000e+03,1.298183758890445905e+00
1.013000000000000000e+03,1.283940604238789973e+00
1.023000000000000000e+03,1.280370818176111092e+00
1.034000000000000000e+03,1.263881658913324602e+00
1.044000000000000000e+03,1.264504415043555818e+00
1.055000000000000000e+03,1.260086640629698218e+00
1.066000000000000000e+03,1.251837394365780565e+00
1.076000000000000000e+03,1.250176032819359850e+00
1.087000000000000000e+03,1.250703958797943383e+00
1.097000000000000000e+03,1.238427580040834197e+00
1.108000000000000000e+03,1.243222387355372049e+00
1.119000000000000000e+03,1.241298107361716418e+00
1.129000000000000000e+03,1.222368771444190871e+00
1.140000000000000000e+03,1.216052159871755523e+00
1.150000000000000000e+03,1.218357597265500303e+00
1.161000000000000000e+03,1.208523049072684152e+00
1.172000000000000000e+03,1.194706945841757406e+00
1.182000000000000000e+03,1.181381178774933760e+00
1.193000000000000000e+03,1.181188230464361277e+00
1.204000000000000000e+03,1.174298573043599525e+00
1.214000000000000000e+03,1.169264677428360821e+00
1.225000000000000000e+03,1.160470734245717006e+00
1.235000000000000000e+03,1.152452762229868810e+00
1.246000000000000000e+03,1.230936423593173679e+00
1.257000000000000000e+03,1.137428684948355251e+00
1.267000000000000000e+03,1.133896639162410569e+00
1.278000000000000000e+03,1.113782384830599215e+00
1.289000000000000000e+03,1.106845760073590368e+00
1.299000000000000000e+03,1.108855254789933298e+00
1.310000000000000000e+03,1.093296294834090521e+00
1.321000000000000000e+03,1.079596648240460866e+00
1.331000000000000000e+03,1.064493579564356640e+00
1.342000000000000000e+03,1.053812872919557941e+00
1.353000000000000000e+03,1.052089859710820807e+00
1.363000000000000000e+03,1.024425509712988847e+00
1.374000000000000000e+03,1.000067793632310575e+00
1.385000000000000000e+03,9.920071910013721350e-01
1.396000000000000000e+03,9.910515557835619660e-01
1.406000000000000000e+03,9.701865016824422483e-01
1.417000000000000000e+03,9.429347756019139659e-01
1.428000000000000000e+03,9.191174961369460439e-01
1.438000000000000000e+03,9.111031696405234026e-01
1.449000000000000000e+03,8.895178316141326702e-01
1.460000000000000000e+03,8.542607107137368816e-01
1.470000000000000000e+03,8.230030169832948106e-01
1.481000000000000000e+03,7.904581010985987088e-01
1.492000000000000000e+03,7.576294528768667824e-01
1.503000000000000000e+03,7.007148176277645524e-01
1.513000000000000000e+03,6.177886719669585247e-01
1.524000000000000000e+03,5.298803630765861472e-01
1.535000000000000000e+03,4.493258810199082798e-01
1.545000000000000000e+03,3.331058402419787567e-01
1.556000000000000000e+03,2.204078159131246661e-01
1.567000000000000000e+03,1.617846766773949341e-01
1.578000000000000000e+03,1.339773812678268228e-01
1.588000000000000000e+03,1.112187754343931800e-01
1.599000000000000000e+03,8.735500129300437233e-02
1.610000000000000000e+03,7.311105267334169766e-02
1.621000000000000000e+03,6.807665151375995316e-02
1.631000000000000000e+03,6.397780491756380195e-02
1.642000000000000000e+03,5.578837319718752547e-02
1.653000000000000000e+03,4.712671158083859418e-02
1.664000000000000000e+03,1.056607221584630052e-01
1.675000000000000000e+03,4.254661862090442642e-02
1.685000000000000000e+03,3.740434019182517500e-02
1.696000000000000000e+03,3.703968356110692167e-02
1.707000000000000000e+03,2.747490717645601627e-02
1.718000000000000000e+03,2.279716072338820732e-02
1.728000000000000000e+03,1.976258214917337927e-02
1.739000000000000000e+03,1.808533168196972338e-02
1.750000000000000000e+03,1.293057080862467130e-02
1.761000000000000000e+03,1.184073625618461967e-02
1.772000000000000000e+03,8.967994496400009605e-03
1.783000000000000000e+03,7.823334679219013862e-03
1.804000000000000000e+03,4.223345958203290028e-03
1.815000000000000000e+03,3.112442935264806126e-03
1.826000000000000000e+03,2.042683318445566790e-03
1.837000000000000000e+03,2.268349461170871689e-03
1.847000000000000000e+03,9.321897300896092001e-05
1.858000000000000000e+03,0.000000000000000000e+00
1.869000000000000000e+03,0.000000000000000000e+00
1.880000000000000000e+03,0.000000000000000000e+00
1.891000000000000000e+03,0.000000000000000000e+00
1.902000000000000000e+03,0.000000000000000000e+00
1.913000000000000000e+03,0.000000000000000000e+00
1.923000000000000000e+03,0.000000000000000000e+00
1.934000000000000000e+03,0.000000000000000000e+00
1.945000000000000000e+03,0.000000000000000000e+00
1.956000000000000000e+03,0.000000000000000000e+00
1.967000000000000000e+03,0.000000000000000000e+00
1.978000000000000000e+03,0.000000000000000000e+00
1.988000000000000000e+03,0.000000000000000000e+00
1.999000000000000000e+03,0.000000000000000000e+00
2.010000000000000000e+03,0.000000000000000000e+00
2.021000000000000000e+03,0.000000000000000000e+00
2.032000000000000000e+03,0.000000000000000000e+00
2.043000000000000000e+03,0.000000000000000000e+00
2.053000000000000000e+03,0.000000000000000000e+00
2.064000000000000000e+03,0.000000000000000000e+00
2.075000000000000000e+03,0.000000000000000000e+00
2.086000000000000000e+03,0.000000000000000000e+00
2.097000000000000000e+03,0.000000000000000000e+00
2.108000000000000000e+03,0.000000000000000000e+00
2.119000000000000000e+03,0.000000000000000000e+00
2.130000000000000000e+03,0.000000000000000000e+00
2.141000000000000000e+03,0.000000000000000000e+00
2.151000000000000000e+03,0.000000000000000000e+00
2.162000000000000000e+03,0.000000000000000000e+00
2.173000000000000000e+03,0.000000000000000000e+00
2.184000000000000000e+03,0.000000000000000000e+00
2.195000000000000000e+03,0.000000000000000000e+00
2.206000000000000000e+03,0.000000000000000000e+00
2.217000000000000000e+03,0.000000000000000000e+00
2.228000000000000000e+03,0.000000000000000000e+00
2.239000000000000000e+03,0.000000000000000000e+00
2.250000000000000000e+03,0.000000000000000000e+00
2.261000000000000000e+03,0.000000000000000000e+00
2.272000000000000000e+03,0.000000000000000000e+00
2.283000000000000000e+03,0.000000000000000000e+00
2.293000000000000000e+03,0.000000000000000000e+00
2.304000000000000000e+03,0.000000000000000000e+00
2.315000000000000000e+03,0.000000000000000000e+00
2.326000000000000000e+03,0.000000000000000000e+00
2.337000000000000000e+03,0.000000000000000000e+00
2.348000000000000000e+03,0.000000000000000000e+00
2.359000000000000000e+03,0.000000000000000000e+00
2.370000000000000000e+03,0.000000000000000000e+00
2.381000000000000000e+03,0.000000000000000000e+00
2.392000000000000000e+03,0.000000000000000000e+00
2.403000000000000000e+03,0.000000000000000000e+00
2.414000000000000000e+03,0.000000000000000000e+00
2.425000000000000000e+03,0.000000000000000000e+00
2.436000000000000000e+03,0.000000000000000000e+00
2.447000000000000000e+03,0.000000000000000000e+00
2.458000000000000000e+03,0.000000000000000000e+00
2.469000000000000000e+03,0.000000000000000000e+00
2.480000000000000000e+03,0.000000000000000000e+00
2.491000000000000000e+03,0.000000000000000000e+00
2.502000000000000000e+03,0.000000000000000000e+00
2.513000000000000000e+03,0.000000000000000000e+00
2.524000000000000000e+03,0.000000000000000000e+00
2.535000000000000000e+03,0.000000000000000000e+00
2.546000000000000000e+03,0.000000000000000000e+00
2.557000000000000000e+03,0.000000000000000000e+00
2.568000000000000000e+03,0.000000000000000000e+00
2.579000000000000000e+03,0.000000000000000000e+00
2.590000000000000000e+03,0.000000000000000000e+00
2.601000000000000000e+03,0.000000000000000000e+00
2.612000000000000000e+03,0.000000000000000000e+00
2.623000000000000000e+03,0.000000000000000000e+00
2.634000000000000000e+03,0.000000000000000000e+00
2.645000000000000000e+03,0.000000000000000000e+00
2.656000000000000000e+03,0.000000000000000000e+00
2.668000000000000000e+03,0.000000000000000000e+00
2.679000000000000000e+03,0.000000000000000000e+00
2.690000000000000000e+03,0.000000000000000000e+00
2.701000000000000000e+03,0.000000000000000000e+00
2.712000000000000000e+03,0.000000000000000000e+00
2.723000000000000000e+03,0.000000000000000000e+00
2.734000000000000000e+03,0.000000000000000000e+00
2.745000000000000000e+03,0.000000000000000000e+00
2.756000000000000000e+03,0.000000000000000000e+00
2.767000000000000000e+03,0.000000000000000000e+00
2.778000000000000000e+03,0.000000000000000000e+00
2.789000000000000000e+03,0.000000000000000000e+00
2.800000000000000000e+03,0.000000000000000000e+00
2.812000000000000000e+03,0.000000000000000000e+00
2.823000000000000000e+03,0.000000000000000000e+00
2.834000000000000000e+03,0.000000000000000000e+00
2.845000000000000000e+03,0.000000000000000000e+00
2.856000000000000000e+03,0.000000000000000000e+00
2.867000000000000000e+03,0.000000000000000000e+00
2.878000000000000000e+03,0.000000000000000000e+00
2.889000000000000000e+03,0.000000000000000000e+00
2.901000000000000000e+03,0.000000000000000000e+00
2.912000000000000000e+03,0.000000000000000000e+00
2.923000000000000000e+03,0.000000000000000000e+00
2.934000000000000000e+03,0.000000000000000000e+00
2.945000000000000000e+03,0.000000000000000000e+00
2.956000000000000000e+03,0.000000000000000000e+00
2.967000000000000000e+03,0.000000000000000000e+00
2.978000000000000000e+03,0.000000000000000000e+00
2.990000000000000000e+03,0.000000000000000000e+00
3.001000000000000000e+03,0.000000000000000000e+00
3.012000000000000000e+03,0.000000000000000000e+00
3.023000000000000000e+03,0.000000000000000000e+00
3.034000000000000000e+03,0.000000000000000000e+00
3.045000000000000000e+03,0.000000000000000000e+00
3.057000000000000000e+03,0.000000000000000000e+00
3.068000000000000000e+03,0.000000000000000000e+00
3.079000000000000000e+03,0.000000000000000000e+00
3.090000000000000000e+03,0.000000000000000000e+00
3.101000000000000000e+03,0.000000000000000000e+00
3.112000000000000000e+03,0.000000000000000000e+00
3.123000000000000000e+03,0.000000000000000000e+00
3.135000000000000000e+03,0.000000000000000000e+00
3.146000000000000000e+03,0.000000000000000000e+00
3.157000000000000000e+03,0.000000000000000000e+00
3.168000000000000000e+03,0.000000000000000000e+00
3.180000000000000000e+03,0.000000000000000000e+00
3.191000000000000000e+03,0.000000000000000000e+00
3.202000000000000000e+03,0.000000000000000000e+00
3.213000000000000000e+03,0.000000000000000000e+00
3.225000000000000000e+03,0.000000000000000000e+00
3.236000000000000000e+03,0.000000000000000000e+00
3.247000000000000000e+03,0.000000000000000000e+00
3.258000000000000000e+03,0.000000000000000000e+00
3.270000000000000000e+03,0.000000000000000000e+00
3.281000000000000000e+03,0.000000000000000000e+00
3.292000000000000000e+03,0.000000000000000000e+00
3.303000000000000000e+03,0.000000000000000000e+00
3.315000000000000000e+03,0.000000000000000000e+00
3.326000000000000000e+03,0.000000000000000000e+00
3.337000000000000000e+03,0.000000000000000000e+00
3.348000000000000000e+03,0.000000000000000000e+00
3.360000000000000000e+03,0.000000000000000000e+00
3.371000000000000000e+03,0.000000000000000000e+00
3.382000000000000000e+03,0.000000000000000000e+00
3.393000000000000000e+03,0.000000000000000000e+00
3.405000000000000000e+03,0.000000000000000000e+00
3.416000000000000000e+03,0.000000000000000000e+00
3.427000000000000000e+03,0.000000000000000000e+00
3.439000000000000000e+03,0.000000000000000000e+00
3.450000000000000000e+03,0.000000000000000000e+00
3.461000000000000000e+03,0.000000000000000000e+00
3.473000000000000000e+03,0.000000000000000000e+00
3.484000000000000000e+03,0.000000000000000000e+00
3.495000000000000000e+03,0.000000000000000000e+00
3.507000000000000000e+03,0.000000000000000000e+00
3.518000000000000000e+03,0.000000000000000000e+00
3.529000000000000000e+03,0.000000000000000000e+00
3.541000000000000000e+03,0.000000000000000000e+00
3.552000000000000000e+03,0.000000000000000000e+00
3.564000000000000000e+03,0.000000000000000000e+00
3.575000000000000000e+03,0.000000000000000000e+00
3.586000000000000000e+03,0.000000000000000000e+00
3.598000000000000000e+03,0.000000000000000000e+00
3.609000000000000000e+03,0.000000000000000000e+00
3.620000000000000000e+03,0.000000000000000000e+00
3.632000000000000000e+03,0.000000000000000000e+00
3.643000000000000000e+03,9.266533700609478827e-03
3.654000000000000000e+03,0.000000000000000000e+00
3.666000000000000000e+03,0.000000000000000000e+00
3.677000000000000000e+03,0.000000000000000000e+00
3.688000000000000000e+03,0.000000000000000000e+00
3.700000000000000000e+03,9.656241328893809192e-03
3.711000000000000000e+03,0.000000000000000000e+00
3.723000000000000000e+03,0.000000000000000000e+00
3.734000000000000000e+03,0.000000000000000000e+00
3.745000000000000000e+03,0.000000000000000000e+00
3.757000000000000000e+03,0.000000000000000000e+00
3.768000000000000000e+03,0.000000000000000000e+00
3.780000000000000000e+03,0.000000000000000000e+00
3.791000000000000000e+03,0.000000000000000000e+00
3.802000000000000000e+03,0.000000000000000000e+00
3.814000000000000000e+03,0.000000000000000000e+00
3.825000000000000000e+03,0.000000000000000000e+00
3.837000000000000000e+03,0.000000000000000000e+00
3.848000000000000000e+03,0.000000000000000000e+00
3.859000000000000000e+03,0.000000000000000000e+00
3.871000000000000000e+03,0.000000000000000000e+00
3.882000000000000000e+03,0.000000000000000000e+00
3.894000000000000000e+03,0.000000000000000000e+00
3.905000000000000000e+03,0.000000000000000000e+00
3.917000000000000000e+03,0.000000000000000000e+00
3.928000000000000000e+03,0.000000000000000000e+00
3.940000000000000000e+03,0.000000000000000000e+00
3.951000000000000000e+03,0.000000000000000000e+00
3.962000000000000000e+03,0.000000000000000000e+00
3.974000000000000000e+03,0.000000000000000000e+00
3.985000000000000000e+03,0.000000000000000000e+00
3.997000000000000000e+03,0.000000000000000000e+00
4.008000000000000000e+03,0.000000000000000000e+00
4.020000000000000000e+03,0.000000000000000000e+00
4.031000000000000000e+03,0.000000000000000000e+00
4.043000000000000000e+03,0.000000000000000000e+00
4.054000000000000000e+03,0.000000000000000000e+00
4.066000000000000000e+03,0.000000000000000000e+00
4.077000000000000000e+03,0.000000000000000000e+00
4.089000000000000000e+03,0.000000000000000000e+00
4.100000000000000000e+03,0.000000000000000000e+00
4.112000000000000000e+03,0.000000000000000000e+00
4.123000000000000000e+03,0.000000000000000000e+00
4.135000000000000000e+03,0.000000000000000000e+00
4.147000000000000000e+03,0.000000000000000000e+00
4.169000000000000000e+03,0.000000000000000000e+00
4.181000000000000000e+03,0.000000000000000000e+00
4.192000000000000000e+03,0.000000000000000000e+00
4.204000000000000000e+03,0.000000000000000000e+00
4.216000000000000000e+03,0.000000000000000000e+00
4.227000000000000000e+03,0.000000000000000000e+00
4.239000000000000000e+03,0.000000000000000000e+00
4.250000000000000000e+03,0.000000000000000000e+00
4.262000000000000000e+03,0.000000000000000000e+00
4.273000000000000000e+03,0.000000000000000000e+00
4.285000000000000000e+03,0.000000000000000000e+00
4.297000000000000000e+03,0.000000000000000000e+00
4.308000000000000000e+03,0.000000000000000000e+00
4.320000000000000000e+03,0.000000000000000000e+00
4.331000000000000000e+03,0.000000000000000000e+00
4.343000000000000000e+03,0.000000000000000000e+00
4.354000000000000000e+03,0.000000000000000000e+00
4.366000000000000000e+03,0.000000000000000000e+00
4.378000000000000000e+03,0.000000000000000000e+00
4.389000000000000000e+03,0.000000000000000000e+00
4.401000000000000000e+03,0.000000000000000000e+00
4.412000000000000000e+03,0.000000000000000000e+00
4.424000000000000000e+03,0.000000000000000000e+00
4.435000000000000000e+03,0.000000000000000000e+00
4.447000000000000000e+03,0.000000000000000000e+00
4.459000000000000000e+03,0.000000000000000000e+00
4.470000000000000000e+03,0.000000000000000000e+00
4.482000000000000000e+03,0.000000000000000000e+00
4.493000000000000000e+03,0.000000000000000000e+00
4.505000000000000000e+03,0.000000000000000000e+00
4.517000000000000000e+03,0.000000000000000000e+00
4.528000000000000000e+03,0.000000000000000000e+00
4.540000000000000000e+03,0.000000000000000000e+00
4.552000000000000000e+03,0.000000000000000000e+00
4.563000000000000000e+03,0.000000000000000000e+00
4.575000000000000000e+03,0.000000000000000000e+00
4.587000000000000000e+03,0.000000000000000000e+00
4.598000000000000000e+03,0.000000000000000000e+00
4.610000000000000000e+03,0.000000000000000000e+00
4.621000000000000000e+03,0.000000000000000000e+00
4.633000000000000000e+03,0.000000000000000000e+00
4.645000000000000000e+03,0.000000000000000000e+00
4.657000000000000000e+03,0.000000000000000000e+00
4.668000000000000000e+03,0.000000000000000000e+00
4.680000000000000000e+03,0.000000000000000000e+00
4.691000000000000000e+03,0.000000000000000000e+00
4.703000000000000000e+03,0.000000000000000000e+00
4.715000000000000000e+03,0.000000000000000000e+00
4.727000000000000000e+03,0.000000000000000000e+00
4.738000000000000000e+03,0.000000000000000000e+00
4.750000000000000000e+03,0.000000000000000000e+00
4.762000000000000000e+03,0.000000000000000000e+00
4.773000000000000000e+03,0.000000000000000000e+00
4.785000000000000000e+03,0.000000000000000000e+00
4.797000000000000000e+03,0.000000000000000000e+00
4.809000000000000000e+03,0.000000000000000000e+00
4.820000000000000000e+03,0.000000000000000000e+00
4.832000000000000000e+03,0.000000000000000000e+00
4.844000000000000000e+03,0.000000000000000000e+00
4.855000000000000000e+03,0.000000000000000000e+00
4.867000000000000000e+03,0.000000000000000000e+00
4.879000000000000000e+03,0.000000000000000000e+00
4.891000000000000000e+03,0.000000000000000000e+00
4.902000000000000000e+03,0.000000000000000000e+00
4.914000000000000000e+03,0.000000000000000000e+00
4.926000000000000000e+03,0.000000000000000000e+00
4.938000000000000000e+03,0.000000000000000000e+00
4.949000000000000000e+03,0.000000000000000000e+00
4.961000000000000000e+03,0.000000000000000000e+00
4.973000000000000000e+03,0.000000000000000000e+00
4.985000000000000000e+03,0.000000000000000000e+00
4.996000000000000000e+03,0.000000000000000000e+00
5.008000000000000000e+03,0.000000000000000000e+00
5.020000000000000000e+03,0.000000000000000000e+00
5.032000000000000000e+03,0.000000000000000000e+00
5.044000000000000000e+03,0.000000000000000000e+00
5.055000000000000000e+03,0.000000000000000000e+00
5.067000000000000000e+03,0.000000000000000000e+00
5.079000000000000000e+03,0.000000000000000000e+00
5.091000000000000000e+03,0.000000000000000000e+00
5.103000000000000000e+03,0.000000000000000000e+00
5.114000000000000000e+03,0.000000000000000000e+00
5.126000000000000000e+03,0.000000000000000000e+00
5.138000000000000000e+03,0.000000000000000000e+00
5.150000000000000000e+03,0.000000000000000000e+00
5.161000000000000000e+03,0.000000000000000000e+00
5.173000000000000000e+03,0.000000000000000000e+00
5.185000000000000000e+03,0.000000000000000000e+00
5.197000000000000000e+03,0.000000000000000000e+00
5.209000000000000000e+03,0.000000000000000000e+00
5.221000000000000000e+03,0.000000000000000000e+00
5.233000000000000000e+03,0.000000000000000000e+00
5.244000000000000000e+03,0.000000000000000000e+00
5.256000000000000000e+03,0.000000000000000000e+00
5.268000000000000000e+03,0.000000000000000000e+00
5.280000000000000000e+03,0.000000000000000000e+00
5.292000000000000000e+03,0.000000000000000000e+00
5.303000000000000000e+03,0.000000000000000000e+00
5.315000000000000000e+03,0.000000000000000000e+00
5.327000000000000000e+03,0.000000000000000000e+00
5.339000000000000000e+03,0.000000000000000000e+00
5.351000000000000000e+03,0.000000000000000000e+00
5.363000000000000000e+03,0.000000000000000000e+00
5.375000000000000000e+03,0.000000000000000000e+00
5.387000000000000000e+03,0.000000000000000000e+00
5.398000000000000000e+03,0.000000000000000000e+00
5.410000000000000000e+03,0.000000000000000000e+00
5.422000000000000000e+03,0.000000000000000000e+00
5.434000000000000000e+03,0.000000000000000000e+00
5.446000000000000000e+03,0.000000000000000000e+00
5.458000000000000000e+03,0.000000000000000000e+00
5.470000000000000000e+03,0.000000000000000000e+00
5.482000000000000000e+03,0.000000000000000000e+00
5.494000000000000000e+03,0.000000000000000000e+00
5.505000000000000000e+03,0.000000000000000000e+00
5.517000000000000000e+03,0.000000000000000000e+00
5.541000000000000000e+03,0.000000000000000000e+00
5.553000000000000000e+03,0.000000000000000000e+00
5.565000000000000000e+03,0.000000000000000000e+00
5.577000000000000000e+03,0.000000000000000000e+00
5.589000000000000000e+03,0.000000000000000000e+00
5.601000000000000000e+03,0.000000000000000000e+00
5.613000000000000000e+03,0.000000000000000000e+00
5.625000000000000000e+03,0.000000000000000000e+00
5.637000000000000000e+03,0.000000000000000000e+00
5.649000000000000000e+03,0.000000000000000000e+00
5.661000000000000000e+03,0.000000000000000000e+00
5.673000000000000000e+03,0.000000000000000000e+00
5.685000000000000000e+03,0.000000000000000000e+00
5.697000000000000000e+03,0.000000000000000000e+00
5.709000000000000000e+03,0.000000000000000000e+00
5.721000000000000000e+03,0.000000000000000000e+00
5.733000000000000000e+03,0.000000000000000000e+00
5.745000000000000000e+03,0.000000000000000000e+00
5.757000000000000000e+03,0.000000000000000000e+00
5.769000000000000000e+03,0.000000000000000000e+00
5.781000000000000000e+03,0.000000000000000000e+00
5.793000000000000000e+03,0.000000000000000000e+00
5.805000000000000000e+03,0.000000000000000000e+00
5.817000000000000000e+03,0.000000000000000000e+00
5.829000000000000000e+03,0.000000000000000000e+00
5.841000000000000000e+03,0.000000000000000000e+00
5.853000000000000000e+03,0.000000000000000000e+00
5.865000000000000000e+03,0.000000000000000000e+00
5.877000000000000000e+03,0.000000000000000000e+00
5.889000000000000000e+03,0.000000000000000000e+00
5.901000000000000000e+03,0.000000000000000000e+00
5.913000000000000000e+03,0.000000000000000000e+00
5.925000000000000000e+03,0.000000000000000000e+00
5.937000000000000000e+03,0.000000000000000000e+00
5.949000000000000000e+03,0.000000000000000000e+00
5.961000000000000000e+03,0.000000000000000000e+00
5.974000000000000000e+03,0.000000000000000000e+00
5.986000000000000000e+03,0.000000000000000000e+00
5.998000000000000000e+03,0.000000000000000000e+00
6.010000000000000000e+03,0.000000000000000000e+00
6.022000000000000000e+03,0.000000000000000000e+00
6.034000000000000000e+03,0.000000000000000000e+00
6.046000000000000000e+03,0.000000000000000000e+00
6.058000000000000000e+03,0.000000000000000000e+00
6.070000000000000000e+03,0.000000000000000000e+00
6.083000000000000000e+03,0.000000000000000000e+00
6.095000000000000000e+03,0.000000000000000000e+00
6.107000000000000000e+03,0.000000000000000000e+00
6.119000000000000000e+03,0.000000000000000000e+00
6.131000000000000000e+03,0.000000000000000000e+00
6.143000000000000000e+03,0.000000000000000000e+00
6.155000000000000000e+03,0.000000000000000000e+00
6.167000000000000000e+03,0.000000000000000000e+00
6.180000000000000000e+03,0.000000000000000000e+00
6.192000000000000000e+03,0.000000000000000000e+00
6.204000000000000000e+03,0.000000000000000000e+00
6.216000000000000000e+03,0.000000000000000000e+00
6.228000000000000000e+03,0.000000000000000000e+00
6.240000000000000000e+03,0.000000000000000000e+00
6.252000000000000000e+03,0.000000000000000000e+00
6.264000000000000000e+03,0.000000000000000000e+00
6.277000000000000000e+03,0.000000000000000000e+00
6.289000000000000000e+03,0.000000000000000000e+00
6.301000000000000000e+03,0.000000000000000000e+00
6.313000000000000000e+03,0.000000000000000000e+00
6.325000000000000000e+03,0.000000000000000000e+00
6.337000000000000000e+03,0.000000000000000000e+00
6.349000000000000000e+03,0.000000000000000000e+00
6.361000000000000000e+03,0.000000000000000000e+00
6.374000000000000000e+03,0.000000000000000000e+00
6.386000000000000000e+03,0.000000000000000000e+00
6.398000000000000000e+03,0.000000000000000000e+00
6.410000000000000000e+03,0.000000000000000000e+00
6.422000000000000000e+03,0.000000000000000000e+00
6.434000000000000000e+03,0.000000000000000000e+00
6.447000000000000000e+03,0.000000000000000000e+00
6.459000000000000000e+03,0.000000000000000000e+00
6.471000000000000000e+03,0.000000000000000000e+00
6.483000000000000000e+03,0.000000000000000000e+00
6.495000000000000000e+03,0.000000000000000000e+00
6.508000000000000000e+03,0.000000000000000000e+00
6.520000000000000000e+03,0.000000000000000000e+00
6.532000000000000000e+03,0.000000000000000000e+00
6.544000000000000000e+03,0.000000000000000000e+00
6.557000000000000000e+03,0.000000000000000000e+00
6.569000000000000000e+03,0.000000000000000000e+00
6.581000000000000000e+03,0.000000000000000000e+00
6.593000000000000000e+03,0.000000000000000000e+00
6.605000000000000000e+03,0.000000000000000000e+00
6.618000000000000000e+03,0.000000000000000000e+00
6.630000000000000000e+03,0.000000000000000000e+00
6.642000000000000000e+03,0.000000000000000000e+00
6.654000000000000000e+03,0.000000000000000000e+00
6.667000000000000000e+03,0.000000000000000000e+00
6.679000000000000000e+03,0.000000000000000000e+00
6.691000000000000000e+03,0.000000000000000000e+00
6.703000000000000000e+03,0.000000000000000000e+00
6.716000000000000000e+03,0.000000000000000000e+00
6.728000000000000000e+03,0.000000000000000000e+00
6.740000000000000000e+03,0.000000000000000000e+00
6.753000000000000000e+03,0.000000000000000000e+00
6.765000000000000000e+03,0.000000000000000000e+00
6.777000000000000000e+03,0.000000000000000000e+00
6.789000000000000000e+03,0.000000000000000000e+00
6.802000000000000000e+03,0.000000000000000000e+00
6.814000000000000000e+03,0.000000000000000000e+00
6.826000000000000000e+03,0.000000000000000000e+00
6.838000000000000000e+03,0.000000000000000000e+00
6.851000000000000000e+03,0.000000000000000000e+00
6.863000000000000000e+03,0.000000000000000000e+00
6.875000000000000000e+03,0.000000000000000000e+00
6.888000000000000000e+03,0.000000000000000000e+00
6.900000000000000000e+03,0.000000000000000000e+00
6.912000000000000000e+03,0.000000000000000000e+00
6.925000000000000000e+03,0.000000000000000000e+00
6.937000000000000000e+03,0.000000000000000000e+00
6.950000000000000000e+03,0.000000000000000000e+00
6.962000000000000000e+03,0.000000000000000000e+00
6.974000000000000000e+03,0.000000000000000000e+00
6.987000000000000000e+03,0.000000000000000000e+00
6.999000000000000000e+03,0.000000000000000000e+00
7.011000000000000000e+03,0.000000000000000000e+00
7.024000000000000000e+03,0.000000000000000000e+00
7.036000000000000000e+03,0.000000000000000000e+00
7.048000000000000000e+03,0.000000000000000000e+00
7.061000000000000000e+03,0.000000000000000000e+00
7.073000000000000000e+03,0.000000000000000000e+00
7.085000000000000000e+03,0.000000000000000000e+00
7.098000000000000000e+03,0.000000000000000000e+00
7.110000000000000000e+03,0.000000000000000000e+00
7.123000000000000000e+03,0.000000000000000000e+00
7.135000000000000000e+03,0.000000000000000000e+00
7.147000000000000000e+03,0.000000000000000000e+00
7.160000000000000000e+03,0.000000000000000000e+00
7.172000000000000000e+03,0.000000000000000000e+00
7.184000000000000000e+03,0.000000000000000000e+00
7.197000000000000000e+03,0.000000000000000000e+00
7.209000000000000000e+03,0.000000000000000000e+00
7.221000000000000000e+03,0.000000000000000000e+00
7.234000000000000000e+03,0.000000000000000000e+00
7.246000000000000000e+03,0.000000000000000000e+00
7.258000000000000000e+03,0.000000000000000000e+00
7.271000000000000000e+03,0.000000000000000000e+00
7.283000000000000000e+03,0.000000000000000000e+00
7.296000000000000000e+03,0.000000000000000000e+00
7.308000000000000000e+03,0.000000000000000000e+00
7.320000000000000000e+03,0.000000000000000000e+00
7.333000000000000000e+03,0.000000000000000000e+00
7.345000000000000000e+03,0.000000000000000000e+00
7.358000000000000000e+03,0.000000000000000000e+00
7.370000000000000000e+03,0.000000000000000000e+00
7.382000000000000000e+03,0.000000000000000000e+00
7.395000000000000000e+03,0.000000000000000000e+00
7.407000000000000000e+03,0.000000000000000000e+00
7.420000000000000000e+03,0.000000000000000000e+00
7.432000000000000000e+03,0.000000000000000000e+00
7.445000000000000000e+03,0.000000000000000000e+00
7.457000000000000000e+03,0.000000000000000000e+00
7.470000000000000000e+03,0.000000000000000000e+00
7.482000000000000000e+03,0.000000000000000000e+00
7.494000000000000000e+03,0.000000000000000000e+00
7.507000000000000000e+03,0.000000000000000000e+00
7.519000000000000000e+03,0.000000000000000000e+00
7.532000000000000000e+03,0.000000000000000000e+00
7.544000000000000000e+03,0.000000000000000000e+00
7.557000000000000000e+03,0.000000000000000000e+00
7.569000000000000000e+03,0.000000000000000000e+00
7.582000000000000000e+03,0.000000000000000000e+00
7.594000000000000000e+03,0.000000000000000000e+00
7.607000000000000000e+03,0.000000000000000000e+00
7.619000000000000000e+03,0.000000000000000000e+00
7.631000000000000000e+03,0.000000000000000000e+00
7.644000000000000000e+03,0.000000000000000000e+00
7.657000000000000000e+03,0.000000000000000000e+00
7.669000000000000000e+03,0.000000000000000000e+00
7.682000000000000000e+03,0.000000000000000000e+00
7.694000000000000000e+03,0.000000000000000000e+00
7.707000000000000000e+03,0.000000000000000000e+00
7.719000000000000000e+03,0.000000000000000000e+00
7.732000000000000000e+03,0.000000000000000000e+00
7.744000000000000000e+03,0.000000000000000000e+00
7.757000000000000000e+03,0.000000000000000000e+00
7.769000000000000000e+03,0.000000000000000000e+00
7.782000000000000000e+03,0.000000000000000000e+00
7.794000000000000000e+03,0.000000000000000000e+00
7.807000000000000000e+03,0.000000000000000000e+00
7.819000000000000000e+03,0.000000000000000000e+00
7.832000000000000000e+03,0.000000000000000000e+00
7.844000000000000000e+03,0.000000000000000000e+00
7.857000000000000000e+03,0.000000000000000000e+00
7.869000000000000000e+03,0.000000000000000000e+00
7.882000000000000000e+03,0.000000000000000000e+00
7.894000000000000000e+03,0.000000000000000000e+00
7.907000000000000000e+03,0.000000000000000000e+00
7.920000000000000000e+03,0.000000000000000000e+00
7.932000000000000000e+03,0.000000000000000000e+00
7.945000000000000000e+03,0.000000000000000000e+00
7.957000000000000000e+03,0.000000000000000000e+00
7.970000000000000000e+03,0.000000000000000000e+00
7.982000000000000000e+03,0.000000000000000000e+00
7.995000000000000000e+03,0.000000000000000000e+00
8.008000000000000000e+03,0.000000000000000000e+00
8.020000000000000000e+03,0.000000000000000000e+00
8.033000000000000000e+03,0.000000000000000000e+00
8.046000000000000000e+03,0.000000000000000000e+00
8.059000000000000000e+03,0.000000000000000000e+00
8.071000000000000000e+03,0.000000000000000000e+00
8.084000000000000000e+03,0.000000000000000000e+00
8.096000000000000000e+03,0.000000000000000000e+00
8.109000000000000000e+03,0.000000000000000000e+00
8.121000000000000000e+03,0.000000000000000000e+00
8.134000000000000000e+03,0.000000000000000000e+00
8.147000000000000000e+03,0.000000000000000000e+00
8.159000000000000000e+03,0.000000000000000000e+00
8.172000000000000000e+03,0.000000000000000000e+00
8.185000000000000000e+03,0.000000000000000000e+00
8.197000000000000000e+03,0.000000000000000000e+00
8.210000000000000000e+03,0.000000000000000000e+00
8.223000000000000000e+03,0.000000000000000000e+00
8.235000000000000000e+03,0.000000000000000000e+00
8.248000000000000000e+03,0.000000000000000000e+00
8.261000000000000000e+03,0.000000000000000000e+00
8.273000000000000000e+03,0.000000000000000000e+00
8.286000000000000000e+03,0.000000000000000000e+00
8.298000000000000000e+03,0.000000000000000000e+00
8.311000000000000000e+03,0.000000000000000000e+00
8.324000000000000000e+03,0.000000000000000000e+00
8.336000000000000000e+03,0.000000000000000000e+00
8.349000000000000000e+03,0.000000000000000000e+00
8.362000000000000000e+03,0.000000000000000000e+00
8.374000000000000000e+03,0.000000000000000000e+00
8.387000000000000000e+03,0.000000000000000000e+00
8.400000000000000000e+03,0.000000000000000000e+00
8.412000000000000000e+03,0.000000000000000000e+00
8.425000000000000000e+03,0.000000000000000000e+00
8.438000000000000000e+03,0.000000000000000000e+00
8.451000000000000000e+03,0.000000000000000000e+00
8.463000000000000000e+03,0.000000000000000000e+00
8.476000000000000000e+03,0.000000000000000000e+00
8.489000000000000000e+03,0.000000000000000000e+00
8.502000000000000000e+03,0.000000000000000000e+00
8.514000000000000000e+03,0.000000000000000000e+00
8.527000000000000000e+03,0.000000000000000000e+00
8.540000000000000000e+03,0.000000000000000000e+00
8.553000000000000000e+03,0.000000000000000000e+00
8.565000000000000000e+03,0.000000000000000000e+00
8.578000000000000000e+03,0.000000000000000000e+00
8.591000000000000000e+03,0.000000000000000000e+00
8.604000000000000000e+03,0.000000000000000000e+00
8.616000000000000000e+03,0.000000000000000000e+00
8.629000000000000000e+03,0.000000000000000000e+00
8.642000000000000000e+03,0.000000000000000000e+00
8.655000000000000000e+03,0.000000000000000000e+00
8.668000000000000000e+03,0.000000000000000000e+00
8.681000000000000000e+03,0.000000000000000000e+00
8.693000000000000000e+03,0.000000000000000000e+00
8.706000000000000000e+03,0.000000000000000000e+00
8.719000000000000000e+03,0.000000000000000000e+00
8.732000000000000000e+03,0.000000000000000000e+00
8.745000000000000000e+03,0.000000000000000000e+00
8.757000000000000000e+03,0.000000000000000000e+00
8.770000000000000000e+03,0.000000000000000000e+00
8.783000000000000000e+03,0.000000000000000000e+00
8.796000000000000000e+03,0.000000000000000000e+00
8.808000000000000000e+03,0.000000000000000000e+00
8.821000000000000000e+03,0.000000000000000000e+00
8.834000000000000000e+03,0.000000000000000000e+00
8.847000000000000000e+03,0.000000000000000000e+00
8.859000000000000000e+03,0.000000000000000000e+00
8.872000000000000000e+03,0.000000000000000000e+00
8.885000000000000000e+03,0.000000000000000000e+00
8.898000000000000000e+03,0.000000000000000000e+00
8.911000000000000000e+03,0.000000000000000000e+00
8.924000000000000000e+03,0.000000000000000000e+00
8.937000000000000000e+03,0.000000000000000000e+00
8.949000000000000000e+03,0.000000000000000000e+00
8.962000000000000000e+03,0.000000000000000000e+00
8.975000000000000000e+03,0.000000000000000000e+00
8.988000000000000000e+03,0.000000000000000000e+00
9.001000000000000000e+03,0.000000000000000000e+00
9.013000000000000000e+03,0.000000000000000000e+00
9.026000000000000000e+03,0.000000000000000000e+00
9.039000000000000000e+03,0.000000000000000000e+00
9.052000000000000000e+03,0.000000000000000000e+00
9.065000000000000000e+03,0.000000000000000000e+00
9.078000000000000000e+03,0.000000000000000000e+00
9.091000000000000000e+03,0.000000000000000000e+00
9.104000000000000000e+03,0.000000000000000000e+00
9.116000000000000000e+03,0.000000000000000000e+00
9.129000000000000000e+03,0.000000000000000000e+00
9.142000000000000000e+03,0.000000000000000000e+00
9.155000000000000000e+03,0.000000000000000000e+00
9.168000000000000000e+03,0.000000000000000000e+00
9.181000000000000000e+03,0.000000000000000000e+00
9.194000000000000000e+03,0.000000000000000000e+00
9.207000000000000000e+03,0.000000000000000000e+00
9.220000000000000000e+03,0.000000000000000000e+00
9.233000000000000000e+03,0.000000000000000000e+00
9.246000000000000000e+03,0.000000000000000000e+00
9.259000000000000000e+03,0.000000000000000000e+00
9.272000000000000000e+03,0.000000000000000000e+00
9.284000000000000000e+03,0.000000000000000000e+00
9.298000000000000000e+03,0.000000000000000000e+00
9.311000000000000000e+03,0.000000000000000000e+00
9.324000000000000000e+03,0.000000000000000000e+00
9.337000000000000000e+03,0.000000000000000000e+00
9.349000000000000000e+03,0.000000000000000000e+00
9.362000000000000000e+03,0.000000000000000000e+00
9.375000000000000000e+03,0.000000000000000000e+00
9.388000000000000000e+03,0.000000000000000000e+00
9.401000000000000000e+03,0.000000000000000000e+00
9.414000000000000000e+03,0.000000000000000000e+00
9.427000000000000000e+03,0.000000000000000000e+00
9.440000000000000000e+03,0.000000000000000000e+00
9.453000000000000000e+03,0.000000000000000000e+00
9.466000000000000000e+03,0.000000000000000000e+00
9.479000000000000000e+03,0.000000000000000000e+00
9.492000000000000000e+03,0.000000000000000000e+00
9.505000000000000000e+03,0.000000000000000000e+00
9.518000000000000000e+03,0.000000000000000000e+00
9.531000000000000000e+03,0.000000000000000000e+00
9.544000000000000000e+03,0.000000000000000000e+00
9.557000000000000000e+03,0.000000000000000000e+00
9.570000000000000000e+03,0.000000000000000000e+00
9.583000000000000000e+03,0.000000000000000000e+00
9.596000000000000000e+03,0.000000000000000000e+00
9.609000000000000000e+03,0.000000000000000000e+00
9.622000000000000000e+03,0.000000000000000000e+00
9.635000000000000000e+03,0.000000000000000000e+00
9.648000000000000000e+03,0.000000000000000000e+00
9.661000000000000000e+03,0.000000000000000000e+00
9.674000000000000000e+03,0.000000000000000000e+00
9.687000000000000000e+03,0.000000000000000000e+00
9.700000000000000000e+03,0.000000000000000000e+00
9.713000000000000000e+03,0.000000000000000000e+00
9.726000000000000000e+03,0.000000000000000000e+00
9.739000000000000000e+03,0.000000000000000000e+00
9.752000000000000000e+03,0.000000000000000000e+00
9.765000000000000000e+03,0.000000000000000000e+00
9.778000000000000000e+03,0.000000000000000000e+00
9.791000000000000000e+03,0.000000000000000000e+00
9.804000000000000000e+03,0.000000000000000000e+00
9.817000000000000000e+03,8.474369405272249179e-05
9.830000000000000000e+03,1.574693529729849235e-03
9.843000000000000000e+03,1.991605373616520992e-03
9.856000000000000000e+03,5.002269908367054261e-04
9.869000000000000000e+03,7.293367354334823671e-04
9.882000000000000000e+03,2.118437331352171306e-05
9.895000000000000000e+03,1.026510851694860046e-03
9.908000000000000000e+03,2.796781630733055548e-03
9.921000000000000000e+03,3.014307413738884656e-03
9.934000000000000000e+03,1.527922275373752364e-03
9.947000000000000000e+03,2.860748493035657203e-03
9.961000000000000000e+03,2.975912593037094520e-03
9.974000000000000000e+03,1.695039273330073328e-04
9.987000000000000000e+03,2.383356557979008587e-03
1.000000000000000000e+04,0.000000000000000000e+00
1.001300000000000000e+04,2.950317931541742225e-03
1.002600000000000000e+04,5.765834769754546625e-04
1.003900000000000000e+04,0.000000000000000000e+00
1.005200000000000000e+04,1.187919140631002674e-03
1.006500000000000000e+04,2.251313962633645985e-03
1.007800000000000000e+04,1.821388930858915947e-03
1.009100000000000000e+04,0.000000000000000000e+00
1.010500000000000000e+04,1.736305720794566231e-03
1.011800000000000000e+04,2.349277205979401813e-03
1.013100000000000000e+04,1.438645683555486417e-03
1.014400000000000000e+04,1.196415975689375799e-03
1.015700000000000000e+04,1.800116565595136957e-03
1.017000000000000000e+04,3.136342997156965694e-04
1.018300000000000000e+04,5.935534082804293492e-04
1.019600000000000000e+04,4.082189182367581062e-03
1.020900000000000000e+04,2.600675314833530115e-03
1.022200000000000000e+04,2.276867461031972708e-03
1.023600000000000000e+04,1.119950444065974078e-03
1.024900000000000000e+04,3.099641392203768362e-03
1.026200000000000000e+04,1.081722726347960749e-03
1.027500000000000000e+04,2.136341822561651539e-03
1.028800000000000000e+04,2.498394118300913472e-03
1.030100000000000000e+04,0.000000000000000000e+00
1.031500000000000000e+04,5.538735166715767419e-03
1.032800000000000000e+04,2.903398302739453908e-03
1.034100000000000000e+04,9.373372634396078028e-04
1.035400000000000000e+04,2.034126530751725914e-04
1.036700000000000000e+04,2.332238532762362804e-03
1.038100000000000000e+04,1.349387440282079310e-03
1.039400000000000000e+04,2.268349461170871689e-03
1.040700000000000000e+04,9.755522735309060146e-04
1.042000000000000000e+04,2.387616665016705289e-03
1.043300000000000000e+04,2.950317931541742225e-03
1.044600000000000000e+04,3.056972307075470768e-03
1.045900000000000000e+04,2.034169910453141866e-03
1.047300000000000000e+04,1.009523994598323423e-03
1.048600000000000000e+04,2.315200527997410013e-03
1.049900000000000000e+04,2.204469786919685363e-03
1.051200000000000000e+04,8.778983751967213509e-04
1.052500000000000000e+04,0.000000000000000000e+00
1.053900000000000000e+04,8.863891469013001657e-04
1.055200000000000000e+04,2.651824947654475399e-03
1.056500000000000000e+04,2.217244970115388788e-03
1.057800000000000000e+04,1.264396641384008067e-03
1.059100000000000000e+04,2.797169673619642445e-04
1.060500000000000000e+04,3.355743976744957058e-03
1.061800000000000000e+04,1.694741598214718161e-05
1.063100000000000000e+04,2.997242629921361388e-03
1.064500000000000000e+04,2.754142289500849296e-03
1.065800000000000000e+04,2.822367245070160451e-03
1.067100000000000000e+04,1.277144200940342729e-03
1.068400000000000000e+04,2.415631344120161897e-04
1.069800000000000000e+04,1.868191802429933213e-03
1.071100000000000000e+04,1.370637739100920944e-03
1.072400000000000000e+04,1.570441389368153499e-03
1.073700000000000000e+04,2.685928049963255508e-03
1.075100000000000000e+04,2.835160617508540159e-03
